# energy grid [eV]     epsi_x  epsi_y  epsi_z
#
    0.000000000    0.000000000    0.000000000    0.000000000
    0.015015015    0.081199732    0.089942385    0.092109430
    0.030030030    0.162736737    0.180347929    0.184713251
    0.045045045    0.244954549    0.271690754    0.278317983
    0.060060060    0.328209555    0.364467571    0.373455149
    0.075075075    0.412878270    0.459210712    0.470695731
    0.090090090    0.499365724    0.556503462    0.570667225
    0.105105105    0.588115530    0.656998863    0.674074606
    0.120120120    0.679622371    0.761443596    0.781727034
    0.135135135    0.774447978    0.870709254    0.894572908
    0.150150150    0.873242130    0.985834352    1.013747080
    0.165165165    0.976770978    1.108082188    1.140636016
    0.180180180    1.085956201    1.239022369    1.276969791
    0.195195195    1.201930466    1.380648310    1.424954930
    0.210210210    1.326117883    1.535550421    1.587470482
    0.225225225    1.460353515    1.707176952    1.768363764
    0.240240240    1.607064815    1.900234785    1.972905282
    0.255255255    1.769551807    2.121314681    2.208499108
    0.270270270    1.952422394    2.379870435    2.485796236
    0.285285285    2.162254392    2.689716259    2.820398352
    0.300300300    2.408509795    3.071097863    3.235215950
    0.315315315    2.704374642    3.552569311    3.762608352
    0.330330330    3.065689638    4.168385712    4.441424134
    0.345345345    3.501635523    4.936613593    5.292083084
    0.360360360    3.986451476    5.792914426    6.241058104
    0.375375375    4.433982127    6.530811568    7.052239285
    0.390390390    4.777623692    6.987774356    7.538401884
    0.405405405    5.095481295    7.336704133    7.895005902
    0.420420420    5.529867320    7.897122100    8.485942506
    0.435435435    6.158676901    8.833379753    9.497894888
    0.450450450    6.961823440   10.073881638   10.847344670
    0.465465465    7.817030507   11.297524914   12.164202593
    0.480480480    8.592858067   12.145099984   13.031647917
    0.495495495    9.301635328   12.568204022   13.384650792
    0.510510511   10.127625133   12.887574808   13.577425137
    0.525525526   11.268836403   13.433004213   13.973569638
    0.540540541   12.786520508   14.268412868   14.638131516
    0.555555556   14.605084283   15.400212288   15.597237761
    0.570570571   16.469398986   16.786265792   16.862217140
    0.585585586   18.135094528   18.180763156   18.188265807
    0.600600601   19.610280682   19.344330894   19.274195102
    0.615615616   20.833826513   20.313464318   20.179194770
    0.630630631   21.686802036   21.397950084   21.319921780
    0.645645646   22.427342292   22.946058192   23.068400275
    0.660660661   23.398014712   25.054196295   25.460001497
    0.675675676   24.689520102   27.588078037   28.304115017
    0.690690691   26.366449933   30.367977409   31.360538742
    0.705705706   28.436632379   33.121972781   34.287372470
    0.720720721   30.913896866   35.777177029   36.988543720
    0.735735736   33.856900167   38.576877877   39.751934424
    0.750750751   37.133305496   41.643024103   42.764043223
    0.765765766   40.597634235   44.781142834   45.821000595
    0.780780781   44.285798461   47.743453563   48.604477408
    0.795795796   48.088070204   50.337761899   50.899940736
    0.810810811   51.626284341   52.382246065   52.573432215
    0.825825826   54.918477951   53.987716600   53.759375677
    0.840840841   58.325221345   55.437769145   54.722099987
    0.855855856   61.974370995   56.994652102   55.756261107
    0.870870871   65.805761468   58.857551332   57.125553215
    0.885885886   69.507729574   60.902808208   58.753037373
    0.900900901   72.118614685   62.524796574   60.121855830
    0.915915916   72.974366165   63.352903003   60.937519042
    0.930930931   72.598655254   63.786029259   61.569775498
    0.945945946   71.584073352   64.177671125   62.311228207
    0.960960961   70.172703469   64.599297838   63.189684083
    0.975975976   68.700267746   65.198484350   64.306026391
    0.990990991   67.674405632   66.155014225   65.758626750
    1.006006006   67.473759478   67.514649043   67.509363084
    1.021021021   68.206704518   69.376829021   69.654108588
    1.036036036   69.832257866   71.999937315   72.525803944
    1.051051051   72.328827808   75.556208557   76.345838367
    1.066066066   75.441307176   79.808122444   80.881719021
    1.081081081   78.794548504   84.271649155   85.623997878
    1.096096096   82.184444299   88.375456672   89.910666097
    1.111111111   85.579935598   91.741813063   93.274301850
    1.126126126   89.241923807   94.707317836   96.066781326
    1.141141141   93.560931247   98.023669565   99.130568175
    1.156156156   98.307293518  101.733941619  102.579758637
    1.171171171  102.989093760  105.408596154  106.000755818
    1.186186186  107.906648213  109.357064813  109.704086778
    1.201201201  113.482168616  114.107211162  114.245021900
    1.216216216  119.668996090  119.636385416  119.607328439
    1.231231231  126.648699657  126.129673220  125.974979343
    1.246246246  134.843866878  134.054640357  133.827774680
    1.261261261  143.780490788  142.877723496  142.620599728
    1.276276276  152.331789058  151.343868372  151.066397793
    1.291291291  159.502762535  158.402128343  158.100511473
    1.306306306  163.993423247  162.802082499  162.485390257
    1.321321321  164.781269713  163.698993902  163.418233032
    1.336336336  161.981811936  161.297351878  161.124680849
    1.351351351  156.358165174  156.168454419  156.128102030
    1.366366366  148.825126952  148.859993266  148.883473547
    1.381381381  140.292289086  140.123903864  140.100844735
    1.396396396  131.660281806  131.122905476  131.007236913
    1.411411411  123.603145643  122.813620227  122.632677181
    1.426426426  116.125451331  115.228295003  115.019112489
    1.441441441  108.970873909  108.031464642  107.811053386
    1.456456456  102.244957157  101.285761803  101.059342527
    1.471471471   96.245202418   95.311943941   95.090523323
    1.486486486   90.937760555   90.066815188   89.860307609
    1.501501502   85.888836402   85.075502492   84.883727357
    1.516516517   80.793371720   80.071187838   79.901986814
    1.531531532   75.898274337   75.378920324   75.258771029
    1.546546547   71.598946555   71.356297646   71.303617132
    1.561561562   67.899640295   67.863901787   67.862252393
    1.576576577   64.609602970   64.641728008   64.656552119
    1.591591592   61.740772116   61.733033241   61.737170661
    1.606606607   59.294345588   59.187350098   59.166139498
    1.621621622   57.159832814   56.943256871   56.894185874
    1.636636637   55.222306913   54.928812945   54.860107457
    1.651651652   53.374181855   53.084595277   53.016219046
    1.666666667   51.638367616   51.493633056   51.460170499
    1.681681682   50.138418198   50.279711595   50.316263656
    1.696696697   48.929510863   49.390971010   49.506758036
    1.711711712   47.906881088   48.589023092   48.760134671
    1.726726727   46.910337616   47.660808187   47.849635381
    1.741741742   45.882813427   46.608591134   46.791805113
    1.756756757   44.836431424   45.542235145   45.721002623
    1.771771772   43.725078559   44.465945946   44.654085402
    1.786786787   42.594625491   43.425178429   43.635922333
    1.801801802   41.708840538   42.635106826   42.869582321
    1.816816817   41.216626092   42.162609415   42.401975522
    1.831831832   41.021669025   41.878117069   42.095044042
    1.846846847   40.981146244   41.671830468   41.847095190
    1.861861862   40.960210089   41.448696643   41.573259922
    1.876876877   40.839523907   41.144202531   41.222689653
    1.891891892   40.615752330   40.760373607   40.798937967
    1.906906907   40.338045973   40.250754219   40.231815572
    1.921921922   39.947614583   39.522139788   39.419070234
    1.936936937   39.202491186   38.483966112   38.307580858
    1.951951952   37.890326836   37.096800126   36.901342053
    1.966966967   36.135112251   35.459187732   35.293048246
    1.981981982   34.241374386   33.743990925   33.622624248
    1.996996997   32.497262052   32.168474410   32.089233419
    2.012012012   31.131713477   30.926545118   30.878011723
    2.027027027   30.208486276   30.061075018   30.026729796
    2.042042042   29.656484586   29.511494236   29.477507200
    2.057057057   29.373250105   29.177855773   29.131050233
    2.072072072   29.172156128   28.875611366   28.803326998
    2.087087087   28.835717319   28.432448882   28.333259787
    2.102102102   28.279033099   27.847208232   27.740614088
    2.117117117   27.544498907   27.192231952   27.105410141
    2.132132132   26.691137565   26.477924498   26.425946838
    2.147147147   25.764225466   25.684014578   25.665488370
    2.162162162   24.765032075   24.751737708   24.750205057
    2.177177177   23.698046575   23.669894355   23.664793957
    2.192192192   22.623614011   22.550256306   22.533782926
    2.207207207   21.636597861   21.541902576   21.519921049
    2.222222222   20.809969716   20.710158895   20.686780788
    2.237237237   20.122744807   20.004161387   19.976037963
    2.252252252   19.496876130   19.354909644   19.320817050
    2.267267267   18.932392384   18.781411621   18.744804606
    2.282282282   18.498601810   18.343723449   18.305883039
    2.297297297   18.174836957   18.014514272   17.975207585
    2.312312312   17.843855426   17.693460408   17.656652488
    2.327327327   17.476980676   17.368356373   17.341956293
    2.342342342   17.136369859   17.097007361   17.087879231
    2.357357357   16.810027270   16.837484379   16.845164155
    2.372372372   16.451061162   16.513002160   16.529446740
    2.387387387   16.086785455   16.167014022   16.188009461
    2.402402402   15.722185433   15.867276365   15.904372191
    2.417417417   15.280166046   15.572096745   15.645868552
    2.432432432   14.747234301   15.232139118   15.354176666
    2.447447447   14.214526673   14.867750153   15.031916700
    2.462462462   13.740108364   14.491671372   14.680495233
    2.477477477   13.314875772   14.094585835   14.290498739
    2.492492492   12.924998351   13.676273835   13.865116196
    2.507507508   12.563110783   13.225774532   13.392535242
    2.522522523   12.223342890   12.736780733   12.866284131
    2.537537538   11.911321251   12.247905835   12.333146780
    2.552552553   11.616480233   11.793038209   11.838158715
    2.567567568   11.330431090   11.385505205   11.400108051
    2.582582583   11.062789206   11.036073117   11.030073277
    2.597597598   10.803588159   10.732322019   10.715070937
    2.612612613   10.547023962   10.453217939   10.430318303
    2.627627628   10.298133353   10.175209045   10.145103106
    2.642642643   10.056699312    9.887281486    9.845616155
    2.657657658    9.831625046    9.611605885    9.557302483
    2.672672673    9.624829327    9.364259253    9.299815849
    2.687687688    9.419931405    9.134980602    9.064446947
    2.702702703    9.223953938    8.928539687    8.855385368
    2.717717718    9.065438969    8.767708644    8.693954791
    2.732732733    8.944397944    8.650415329    8.577555104
    2.747747748    8.827526224    8.542712466    8.472070478
    2.762762763    8.699556640    8.425509437    8.357469795
    2.777777778    8.595324928    8.327575636    8.261034471
    2.792792793    8.528079640    8.263590307    8.197831487
    2.807807808    8.459856838    8.203163333    8.139351275
    2.822822823    8.363295743    8.124794129    8.065531096
    2.837837838    8.237493782    8.016321517    7.961429629
    2.852852853    8.079660366    7.858468524    7.803619265
    2.867867868    7.889135024    7.660202465    7.603381671
    2.882882883    7.669674931    7.448364518    7.393347664
    2.897897898    7.424476521    7.230798535    7.182639915
    2.912912913    7.155020007    6.992393737    6.952046141
    2.927927928    6.868385060    6.730078842    6.695878586
    2.942942943    6.590701411    6.479526042    6.452139769
    2.957957958    6.342437687    6.269298289    6.251452023
    2.972972973    6.127103815    6.097266539    6.090281803
    2.987987988    5.946262376    5.957975441    5.961384461
    3.003003003    5.800952988    5.852916914    5.866348726
    3.018018018    5.680969895    5.775102787    5.799012797
    3.033033033    5.561662184    5.700285171    5.735263577
    3.048048048    5.428659314    5.610018119    5.655649288
    3.063063063    5.285970135    5.501881689    5.556139814
    3.078078078    5.154549547    5.391557678    5.451084255
    3.093093093    5.055977606    5.297923370    5.358684653
    3.108108108    4.982880011    5.217296689    5.276181493
    3.123123123    4.915199079    5.141646166    5.198533986
    3.138138138    4.854063602    5.079006708    5.135511823
    3.153153153    4.809153227    5.035012254    5.091748935
    3.168168168    4.770764292    4.995388879    5.051826907
    3.183183183    4.720838152    4.939069010    4.993915762
    3.198198198    4.665173615    4.864455015    4.914563071
    3.213213213    4.616018862    4.781177568    4.822743700
    3.228228228    4.565964099    4.694593694    4.727001769
    3.243243243    4.491336254    4.597016719    4.623664741
    3.258258258    4.378687228    4.473618447    4.497573904
    3.273273273    4.246582078    4.329041591    4.349889147
    3.288288288    4.118954639    4.181106248    4.196893243
    3.303303303    4.006510660    4.046068965    4.056213804
    3.318318318    3.906144097    3.929232371    3.935255341
    3.333333333    3.806751919    3.820537053    3.824233803
    3.348348348    3.707238589    3.711627342    3.712972463
    3.363363363    3.621666599    3.612555080    3.610500901
    3.378378378    3.567502423    3.543938631    3.538228875
    3.393393393    3.546479127    3.511853859    3.503339615
    3.408408408    3.543095128    3.504299443    3.494723123
    3.423423423    3.540281462    3.504124576    3.495218508
    3.438438438    3.527120651    3.494273193    3.486228169
    3.453453453    3.501516190    3.464915740    3.455975276
    3.468468468    3.462453489    3.411354319    3.398834858
    3.483483483    3.406932177    3.333254178    3.315123853
    3.498498498    3.347506865    3.247922817    3.223320354
    3.513513514    3.310226381    3.183625076    3.152243884
    3.528528529    3.306418490    3.153770749    3.115842253
    3.543543544    3.326453970    3.149305736    3.105228176
    3.558558559    3.346884227    3.147558618    3.097933391
    3.573573574    3.338892798    3.124246214    3.070794766
    3.588588589    3.287718776    3.069036948    3.014572617
    3.603603604    3.200416652    2.990933737    2.938752847
    3.618618619    3.093047919    2.905601779    2.858905410
    3.633633634    2.974656153    2.819474044    2.780817854
    3.648648649    2.855182423    2.735490773    2.705685342
    3.663663664    2.750246156    2.662172110    2.640256306
    3.678678679    2.666867660    2.602943712    2.587064271
    3.693693694    2.599223080    2.551836334    2.540101739
    3.708708709    2.538671443    2.503218454    2.494478645
    3.723723724    2.482940518    2.458837632    2.452934253
    3.738738739    2.432861307    2.423110614    2.420783733
    3.753753754    2.379609317    2.390371166    2.393169764
    3.768768769    2.311675287    2.349603761    2.359205515
    3.783783784    2.236479710    2.301442041    2.317812578
    3.798798799    2.172781974    2.255505344    2.276314250
    3.813813814    2.128565361    2.218400853    2.240976422
    3.828828829    2.097168479    2.190080254    2.213411588
    3.843843844    2.071317169    2.168800263    2.193270051
    3.858858859    2.048228809    2.151450042    2.177362528
    3.873873874    2.027989455    2.135946446    2.163050507
    3.888888889    2.014226530    2.125398381    2.153303703
    3.903903904    2.009102905    2.121710591    2.149967588
    3.918918919    2.006895821    2.118924534    2.147031001
    3.933933934    1.999349930    2.109256237    2.136826991
    3.948948949    1.987920553    2.095470256    2.122442421
    3.963963964    1.981064327    2.088159708    2.115006913
    3.978978979    1.978516924    2.088166203    2.115649109
    3.993993994    1.972787135    2.083666551    2.111469586
    4.009009009    1.959916675    2.063563326    2.089582459
    4.024024024    1.935801942    2.022909394    2.044815132
    4.039039039    1.896536930    1.962983394    1.979730031
    4.054054054    1.849059631    1.894412201    1.905876834
    4.069069069    1.808362344    1.832648313    1.838833096
    4.084084084    1.779224428    1.783953511    1.785240469
    4.099099099    1.753533173    1.743114225    1.740611134
    4.114114114    1.724016494    1.703909214    1.698983039
    4.129129129    1.689983879    1.665021800    1.658880837
    4.144144144    1.656286817    1.629947135    1.623460023
    4.159159159    1.631248917    1.604288130    1.597643473
    4.174174174    1.618512955    1.590206379    1.583223603
    4.189189189    1.611698434    1.582346270    1.575104534
    4.204204204    1.602054151    1.572907951    1.565723661
    4.219219219    1.588233670    1.560110334    1.553184189
    4.234234234    1.573819971    1.546546376    1.539829345
    4.249249249    1.558262397    1.529754452    1.522725033
    4.264264264    1.537849332    1.503919798    1.495529726
    4.279279279    1.514877666    1.472066420    1.461445722
    4.294294294    1.496009287    1.444385028    1.431550080
    4.309309309    1.484765957    1.427016998    1.412644917
    4.324324324    1.481433267    1.419694690    1.404323574
    4.339339339    1.482917894    1.417679264    1.401431887
    4.354354354    1.484443593    1.416265439    1.399282411
    4.369369369    1.485785990    1.414230101    1.396406997
    4.384384384    1.484711254    1.407511468    1.388288826
    4.399399399    1.470903187    1.388212996    1.367629141
    4.414414414    1.438034659    1.355153301    1.334522440
    4.429429429    1.391789426    1.316104986    1.297262403
    4.444444444    1.344054677    1.280006053    1.264058613
    4.459459459    1.303041402    1.251159677    1.238245285
    4.474474474    1.269152816    1.229361105    1.219464199
    4.489489489    1.241465474    1.215233679    1.208722622
    4.504504505    1.219109597    1.208339186    1.205693257
    4.519519520    1.199033956    1.203104256    1.204175761
    4.534534535    1.179662386    1.193973833    1.197615718
    4.549549550    1.161088805    1.180401598    1.185298212
    4.564564565    1.140862341    1.163576409    1.169320120
    4.579579580    1.117619978    1.145028144    1.151938636
    4.594594595    1.096436461    1.128605519    1.136698501
    4.609609610    1.084582627    1.119186456    1.127879686
    4.624624625    1.083746298    1.118142317    1.126778577
    4.639639640    1.088384912    1.121810843    1.130206071
    4.654654655    1.092053789    1.126119248    1.134679739
    4.669669670    1.093685654    1.129859194    1.138952490
    4.684684685    1.094757352    1.133015019    1.142632423
    4.699699700    1.093902654    1.134700648    1.144953192
    4.714714715    1.086935088    1.131538510    1.142743875
    4.729729730    1.070541082    1.118439421    1.130473264
    4.744744745    1.048474112    1.096635438    1.108736972
    4.759759760    1.029469549    1.075164879    1.086646271
    4.774774775    1.018370497    1.060293674    1.070827475
    4.789789790    1.013598259    1.051661345    1.061226865
    4.804804805    1.011382404    1.046592326    1.055441034
    4.819819820    1.007361457    1.041261212    1.049778719
    4.834834835    0.996893060    1.030534575    1.038986777
    4.849849850    0.980114778    1.013307097    1.021649555
    4.864864865    0.962348793    0.993655250    1.001529352
    4.879879880    0.946201306    0.973596689    0.980495580
    4.894894895    0.929993554    0.952049001    0.957613193
