# energy grid [eV]     ieps_x  ieps_y  ieps_z
#
    0.000000000   64.476645774   65.550213955   65.814361825
    0.015015015   64.409092581   65.475466393   65.737831018
    0.030030030   64.292715570   65.346849348   65.606180126
    0.045045045   64.152904296   65.192597766   65.448349426
    0.060060060   63.990505141   65.013778006   65.265459851
    0.075075075   63.806135618   64.811210896   65.058382685
    0.090090090   63.600473050   64.585786505   64.828060797
    0.105105105   63.374246435   64.338450578   64.575493724
    0.120120120   63.128227349   64.070190414   64.301722314
    0.135135135   62.863221218   63.782021807   64.007814578
    0.150150150   62.580059116   63.474977272   63.694853038
    0.165165165   62.279590210   63.150095705   63.363923691
    0.180180180   61.962674891   62.808413498   63.016106622
    0.195195195   61.630178640   62.450957081   62.652468217
    0.210210210   61.282966597   62.078736790   62.274054858
    0.225225225   60.921898827   61.692741950   61.881887954
    0.240240240   60.547826225   61.293937014   61.476960147
    0.255255255   60.161587020   60.883258637   61.060232513
    0.270270270   59.764003826   60.461613523   60.632632620
    0.285285285   59.355881172   60.029876929   60.195053265
    0.300300300   58.938003485   59.588891708   59.748351785
    0.315315315   58.511133443   59.139467785   59.293349807
    0.330330330   58.076010690   58.682381987   58.830833361
    0.345345345   57.633350836   58.218378149   58.361553255
    0.360360360   57.183844736   57.748167439   57.886225663
    0.375375375   56.728157986   57.272428848   57.405532864
    0.390390390   56.266930630   56.791809818   56.920124097
    0.405405405   55.800777035   56.306926960   56.430616486
    0.420420420   55.330285915   55.818366844   55.937596026
    0.435435435   54.856020489   55.326686846   55.441618598
    0.450450450   54.378518741   54.832416026   54.943211001
    0.465465465   53.898293778   54.336056030   54.442871994
    0.480480480   53.415834264   53.838082008   53.941073323
    0.495495495   52.931604923   53.338943530   53.438260755
    0.510510511   52.446047085   52.839065508   52.934855082
    0.525525526   51.959579291   52.338849109   52.431253116
    0.540540541   51.472597915   51.838672657   51.927828660
    0.555555556   50.985477828   51.338892525   51.424933452
    0.570570571   50.498573071   50.839844005   50.922898096
    0.585585586   50.012217546   50.341842171   50.422032952
    0.600600601   49.526725714   49.845182714   49.922629017
    0.615615616   49.042393300   49.350142758   49.424958766
    0.630630631   48.559497989   48.856981664   48.929276976
    0.645645646   48.078300133   48.365941798   48.435821522
    0.660660661   47.599043432   47.877249289   47.944814142
    0.675675676   47.121955628   47.391114761   47.456461183
    0.690690691   46.647249167   46.907734040   46.970954321
    0.705705706   46.175121864   46.427288837   46.488471248
    0.720720721   45.705757546   45.949947418   46.009176345
    0.735735736   45.239326679   45.475865240   45.533221324
    0.750750751   44.775986985   45.005185573   45.060745848
    0.765765766   44.315884033   44.538040092   44.591878129
    0.780780781   43.859151819   44.074549457   44.126735500
    0.795795796   43.405913327   43.614823864   43.665424968
    0.810810811   42.956281070   43.158963576   43.208043744
    0.825825826   42.510357610   42.707059436   42.754679752
    0.840840841   42.068236067   42.259193360   42.305412115
    0.855855856   41.630000606   41.815438808   41.860311627
    0.870870871   41.195726899   41.375861233   41.419441198
    0.885885886   40.765482581   40.940518521   40.982856287
    0.900900901   40.339327682   40.509461402   40.550605311
    0.915915916   39.917315039   40.082733850   40.122730037
    0.930930931   39.499490693   39.660373463   39.699265965
    0.945945946   39.085894278   39.242411828   39.280242682
    0.960960961   38.676559375   38.828874867   38.865684205
    0.975975976   38.271513870   38.419783173   38.455609317
    0.990990991   37.870780282   38.015152323   38.050031869
    1.006006006   37.474376087   37.614993184   37.648961090
    1.021021021   37.082314016   37.219312202   37.252401864
    1.036036036   36.694602349   36.828111675   36.860355003
    1.051051051   36.311245194   36.441390014   36.472817511
    1.066066066   35.932242743   36.059141999   36.089782822
    1.081081081   35.557591532   35.681359009   35.711241039
    1.096096096   35.187284674   35.308029254   35.337179157
    1.111111111   34.821312087   34.939137987   34.967581272
    1.126126126   34.459660714   34.574667707   34.602428786
    1.141141141   34.102314721   34.214598355   34.241700595
    1.156156156   33.749255700   33.858907499   33.885373270
    1.171171171   33.400462847   33.507570506   33.533421231
    1.186186186   33.055913142   33.160560708   33.185816912
    1.201201201   32.715581513   32.817849562   32.842530909
    1.216216216   32.379440994   32.479406794   32.503532134
    1.231231231   32.047462876   32.145200543   32.168787947
    1.246246246   31.719616844   31.815197494   31.838264294
    1.261261261   31.395871115   31.489363003   31.511925824
    1.276276276   31.076192563   31.167661216   31.189736013
    1.291291291   30.760546836   30.850055182   30.871657269
    1.306306306   30.448898472   30.536506960   30.557651041
    1.321321321   30.141211003   30.226977717   30.247677913
    1.336336336   29.837447056   29.921427825   29.941697705
    1.351351351   29.537568450   29.619816949   29.639669550
    1.366366366   29.241536281   29.322104131   29.341551985
    1.381381381   28.949311008   29.028247867   29.047303025
    1.396396396   28.660852532   28.738206184   28.756880239
    1.411411411   28.376120271   28.451936710   28.470240814
    1.426426426   28.095073226   28.169396737   28.187341622
    1.441441441   27.817670053   27.890543285   27.908139283
    1.456456456   27.543869118   27.615333157   27.632590218
    1.471471471   27.273628558   27.343722996   27.360650703
    1.486486486   27.006906334   27.075669333   27.092276919
    1.501501502   26.743660282   26.811128637   26.827425000
    1.516516517   26.483848160   26.550057354   26.566051075
    1.531531532   26.227427691   26.292411957   26.308111307
    1.546546547   25.974356606   26.038148975   26.053561933
    1.561561562   25.724592681   25.787225035   25.802359301
    1.576576577   25.478093774   25.539596892   25.554459895
    1.591591592   25.234817856   25.295221463   25.309820375
    1.606606607   24.994723044   25.054055851   25.068397599
    1.621621622   24.757767629   24.816057378   24.830148650
    1.636636637   24.523910100   24.581183602   24.595030862
    1.651651652   24.293109174   24.349392346   24.363001838
    1.666666667   24.065323813   24.120641715   24.134019476
    1.681681682   23.840513247   23.894890117   23.908041983
    1.696696697   23.618636994   23.672096279   23.685027896
    1.711711712   23.399654876   23.452219266   23.464936092
    1.726726727   23.183527037   23.235218489   23.247725808
    1.741741742   22.970213954   23.021053728   23.033356653
    1.756756757   22.759676455   22.809685135   22.821788615
    1.771771772   22.551875725   22.601073250   22.612982078
    1.786786787   22.346773325   22.395179008   22.406897826
    1.801801802   22.144331193   22.191963751   22.203497054
    1.816816817   21.944511660   21.991389230   22.002741377
    1.831831832   21.747277451   21.793417620   21.804592830
    1.846846847   21.552591698   21.598011515   21.609013884
    1.861861862   21.360417943   21.405133943   21.415967439
    1.876876877   21.170720142   21.214748366   21.225416838
    1.891891892   20.983462671   21.026818683   21.037325864
    1.906906907   20.798610331   20.841309232   20.851658745
    1.921921922   20.616128346   20.658184797   20.668380157
    1.936936937   20.435982372   20.477410605   20.487455224
    1.951951952   20.258138493   20.298952328   20.308849519
    1.966966967   20.082563225   20.122776085   20.132529065
    1.981981982   19.909223518   19.948848441   19.958460335
    1.996996997   19.738086753   19.777136407   19.786610250
    2.012012012   19.569120743   19.607607441   19.616946181
    2.027027027   19.402293735   19.440229442   19.449435945
    2.042042042   19.237574404   19.274970754   19.284047806
    2.057057057   19.074931856   19.111800161   19.120750470
    2.072072072   18.914335625   18.950686885   18.959513085
    2.087087087   18.755755671   18.791600587   18.800305239
    2.102102102   18.599162377   18.634511358   18.643096953
    2.117117117   18.444526546   18.479389723   18.487858686
    2.132132132   18.291819402   18.326206632   18.334561321
    2.147147147   18.141012584   18.174933463   18.183176174
    2.162162162   17.992078141   18.025542011   18.033674978
    2.177177177   17.844988533   17.878004490   17.886029890
    2.192192192   17.699716626   17.732293528   17.740213480
    2.207207207   17.556235685   17.588382163   17.596198729
    2.222222222   17.414519377   17.446243835   17.453959026
    2.237237237   17.274541761   17.305852390   17.313468164
    2.252252252   17.136277285   17.167182067   17.174700333
    2.267267267   16.999700786   17.030207500   17.037630117
    2.282282282   16.864787481   16.894903710   16.902232492
    2.297297297   16.731512965   16.761246103   16.768482817
    2.312312312   16.599853207   16.629210463   16.636356832
    2.327327327   16.469784543   16.498772949   16.505830654
    2.342342342   16.341283675   16.369910089   16.376880769
    2.357357357   16.214327665   16.242598778   16.249484032
    2.372372372   16.088893931   16.116816270   16.123617658
    2.387387387   15.964960239   15.992540175   15.999259220
    2.402402402   15.842504705   15.869748454   15.876386643
    2.417417417   15.721505785   15.748419416   15.754978197
    2.432432432   15.601942272   15.628531709   15.635012499
    2.447447447   15.483793291   15.510064318   15.516468500
    2.462462462   15.367038296   15.392996563   15.399325485
    2.477477477   15.251657066   15.277308089   15.283563070
    2.492492492   15.137629695   15.162978862   15.169161190
    2.507507508   15.024936594   15.049989170   15.056100103
    2.522522523   14.913558484   14.938319611   14.944360378
    2.537537538   14.803476389   14.827951093   14.833922896
    2.552552553   14.694671636   14.718864829   14.724768840
    2.567567568   14.587125846   14.611042328   14.616879695
    2.582582583   14.480820934   14.504465398   14.510237243
    2.597597598   14.375739102   14.399116135   14.404823554
    2.612612613   14.271862833   14.294976922   14.300620987
    2.627627628   14.169174891   14.192030422   14.197612181
    2.642642643   14.067658314   14.090259576   14.095780056
    2.657657658   13.967296409   13.989647600   13.995107802
    2.672672673   13.868072749   13.890177974   13.895578881
    2.687687688   13.769971171   13.791834445   13.797177017
    2.702702703   13.672975768   13.694601020   13.699886196
    2.717717718   13.577070885   13.598461962   13.603690661
    2.732732733   13.482241119   13.503401784   13.508574906
    2.747747748   13.388471312   13.409405249   13.414523674
    2.762762763   13.295746547   13.316457361   13.321521953
    2.777777778   13.204052144   13.224543366   13.229554968
    2.792792793   13.113373658   13.133648744   13.138608184
    2.807807808   13.023696874   13.043759210   13.048667295
    2.822822823   12.935007803   12.954860702   12.959718228
    2.837837838   12.847292679   12.866939388   12.871747129
    2.852852853   12.760537952   12.779981653   12.784740371
    2.867867868   12.674730293   12.693974100   12.698684540
    2.882882883   12.589856579   12.608903545   12.613566437
    2.897897898   12.505903900   12.524757015   12.529373075
    2.912912913   12.422859547   12.441521742   12.446091671
    2.927927928   12.340711014   12.359185162   12.363709647
    2.942942943   12.259445994   12.277734909   12.282214625
    2.957957958   12.179052374   12.197158816   12.201594423
    2.972972973   12.099518231   12.117444906   12.121837051
    2.987987988   12.020831834   12.038581393   12.042930711
    3.003003003   11.942981633   11.960556678   11.964863792
    3.018018018   11.865956263   11.883359343   11.887624863
    3.033033033   11.789744537   11.806978153   11.811202679
    3.048048048   11.714335444   11.731402048   11.735586167
    3.063063063   11.639718145   11.656620145   11.660764432
    3.078078078   11.565881974   11.582621728   11.586726750
    3.093093093   11.492816429   11.509396253   11.513462564
    3.108108108   11.420511175   11.436933340   11.440961484
    3.123123123   11.348956036   11.365222772   11.369213284
    3.138138138   11.278140998   11.294254492   11.298207895
    3.153153153   11.208056201   11.224018600   11.227935409
    3.168168168   11.138691940   11.154505351   11.158386070
    3.183183183   11.070038660   11.085705150   11.089550276
    3.198198198   11.002086954   11.017608554   11.021418574
    3.213213213   10.934827563   10.950206266   10.953981656
    3.228228228   10.868251370   10.883489132   10.887230363
    3.243243243   10.802349399   10.817448142   10.821155674
    3.258258258   10.737112813   10.752074424   10.755748710
    3.273273273   10.672532912   10.687359243   10.691000727
    3.288288288   10.608601129   10.623293999   10.626903118
    3.303303303   10.545309028   10.559870226   10.563447408
    3.318318318   10.482648305   10.497079586   10.500625252
    3.333333333   10.420610782   10.434913869   10.438428435
    3.348348348   10.359188405   10.373364994   10.376848865
    3.363363363   10.298373244   10.312425000   10.315878576
    3.378378378   10.238157492   10.252086050   10.255509723
    3.393393393   10.178533457   10.192340425   10.195734581
    3.408408408   10.119493567   10.133180524   10.136545544
    3.423423423   10.061030365   10.074598863   10.077935119
    3.438438438   10.003136504   10.016588070   10.019895928
    3.453453453    9.945804752    9.959140885    9.962420705
    3.468468468    9.889027983    9.902250158    9.905502295
    3.483483483    9.832799180    9.845908847    9.849133649
    3.498498498    9.777111433    9.790110016    9.793307826
    3.513513514    9.721957932    9.734846833    9.738017987
    3.528528529    9.667331973    9.680112569    9.683257399
    3.543543544    9.613226951    9.625900597    9.629019428
    3.558558559    9.559636358    9.572204386    9.575297539
    3.573573574    9.506553785    9.519017507    9.522085296
    3.588588589    9.453972919    9.466333622    9.469376358
    3.603603604    9.401887539    9.414146491    9.417164479
    3.618618619    9.350291516    9.362449966    9.365443505
    3.633633634    9.299178815    9.311237988    9.314207374
    3.648648649    9.248543486    9.260504590    9.263450114
    3.663663664    9.198379670    9.210243892    9.213165839
    3.678678679    9.148681592    9.160450101    9.163348753
    3.693693694    9.099443564    9.111117510    9.113993143
    3.708708709    9.050659979    9.062240494    9.065093381
    3.723723724    9.002325315    9.013813512    9.016643920
    3.738738739    8.954434128    8.965831103    8.968639297
    3.753753754    8.906981054    8.918287886    8.921074126
    3.768768769    8.859960808    8.871178559    8.873943101
    3.783783784    8.813368182    8.824497897    8.827240992
    3.798798799    8.767198042    8.778240750    8.780962646
    3.813813814    8.721445328    8.732402043    8.735102985
    3.828828829    8.676105056    8.686976775    8.689657003
    3.843843844    8.631172311    8.641960017    8.644619767
    3.858858859    8.586642249    8.597346909    8.599986414
    3.873873874    8.542510098    8.553132663    8.555752154
    3.888888889    8.498771150    8.509312559    8.511912262
    3.903903904    8.455420769    8.465881946    8.468462083
    3.918918919    8.412454382    8.422836236    8.425397026
    3.933933934    8.369867481    8.380170909    8.382712569
    3.948948949    8.327655625    8.337881509    8.340404252
    3.963963964    8.285814433    8.295963642    8.298467679
    3.978978979    8.244339587    8.254412979    8.256898515
    3.993993994    8.203226831    8.213225248    8.215692488
    4.009009009    8.162471967    8.172396242    8.174845385
    4.024024024    8.122070857    8.131921809    8.134353054
    4.039039039    8.082019422    8.091797858    8.094211400
    4.054054054    8.042313639    8.052020355    8.054416385
    4.069069069    8.002949541    8.012585320    8.014964029
    4.084084084    7.963923217    7.973488833    7.975850406
    4.099099099    7.925230811    7.934727024    7.937071646
    4.114114114    7.886868520    7.896296080    7.898623932
    4.129129129    7.848832592    7.858192240    7.860503501
    4.144144144    7.811119330    7.820411795    7.822706640
    4.159159159    7.773725086    7.782951086    7.785229690
    4.174174174    7.736646263    7.745806507    7.748069041
    4.189189189    7.699879313    7.708974499    7.711221132
    4.204204204    7.663420737    7.672451554    7.674682452
    4.219219219    7.627267084    7.636234211    7.638449539
    4.234234234    7.591414950    7.600319057    7.602518976
    4.249249249    7.555860977    7.564702723    7.566887393
    4.264264264    7.520601853    7.529381890    7.531551469
    4.279279279    7.485634311    7.494353281    7.496507924
    4.294294294    7.450955129    7.459613665    7.461753525
    4.309309309    7.416561128    7.425159853    7.427285082
    4.324324324    7.382449170    7.390988702    7.393099448
    4.339339339    7.348616162    7.357097107    7.359193518
    4.354354354    7.315059052    7.323482010    7.325564230
    4.369369369    7.281774827    7.290140389    7.292208562
    4.384384384    7.248760518    7.257069266    7.259123533
    4.399399399    7.216013191    7.224265701    7.226306201
    4.414414414    7.183529954    7.191726793    7.193753664
    4.429429429    7.151307954    7.159449682    7.161463059
    4.444444444    7.119344373    7.127431543    7.129431561
    4.459459459    7.087636433    7.095669590    7.097656380
    4.474474474    7.056181391    7.064161073    7.066134765
    4.489489489    7.024976542    7.032903279    7.034864003
    4.504504505    6.994019214    7.001893530    7.003841412
    4.519519520    6.963306773    6.971129184    6.973064350
    4.534534535    6.932836616    6.940607634    6.942530207
    4.549549550    6.902606177    6.910326304    6.912236407
    4.564564565    6.872612922    6.880282656    6.882180408
    4.579579580    6.842854351    6.850474181    6.852359703
    4.594594595    6.813327995    6.820898407    6.822771815
    4.609609610    6.784031419    6.791552889    6.793414299
    4.624624625    6.754962217    6.762435217    6.764284745
    4.639639640    6.726118015    6.733543012    6.735380769
    4.654654655    6.697496472    6.704873925    6.706700023
    4.669669670    6.669095272    6.676425636    6.678240186
    4.684684685    6.640912134    6.648195856    6.649998966
    4.699699700    6.612944803    6.620182325    6.621974104
    4.714714715    6.585191053    6.592382813    6.594163366
    4.729729730    6.557648687    6.564795117    6.566564548
    4.744744745    6.530315537    6.537417061    6.539175476
    4.759759760    6.503189460    6.510246500    6.511993999
    4.774774775    6.476268341    6.483281314    6.485017998
    4.789789790    6.449550094    6.456519408    6.458245378
    4.804804805    6.423032656    6.429958718    6.431674071
    4.819819820    6.396713992    6.403597201    6.405302036
    4.834834835    6.370592091    6.377432843    6.379127255
    4.849849850    6.344664969    6.351463654    6.353147738
    4.864864865    6.318930665    6.325687670    6.327361520
    4.879879880    6.293387244    6.300102949    6.301766658
    4.894894895    6.268032793    6.274707576    6.276361234
