# energy grid [eV]     epsi_x  epsi_y  epsi_z
#
    0.000000000    0.000000000    0.000000000    0.000000000
    0.015015015    0.019434100    0.021490266    0.021978271
    0.030030030    0.038901655    0.043014776    0.043991014
    0.045045045    0.058436314    0.064607948    0.066072870
    0.060060060    0.078072115    0.086304539    0.088258812
    0.075075075    0.097843687    0.108139832    0.110584319
    0.090090090    0.117786456    0.130149812    0.133085556
    0.105105105    0.137936871    0.152371359    0.155799553
    0.120120120    0.158332631    0.174842446    0.178764405
    0.135135135    0.179012940    0.197602359    0.202019472
    0.150150150    0.200018779    0.220691921    0.225605601
    0.165165165    0.221393206    0.244153742    0.249565367
    0.180180180    0.243181682    0.268032489    0.273943325
    0.195195195    0.265432444    0.292375185    0.298786292
    0.210210210    0.288196914    0.317231533    0.324143662
    0.225225225    0.311530166    0.342654286    0.350067743
    0.240240240    0.335491459    0.368699652    0.376614140
    0.255255255    0.360144837    0.395427754    0.403842186
    0.270270270    0.385559836    0.422903154    0.431815418
    0.285285285    0.411812287    0.451195438    0.460602123
    0.300300300    0.438985262    0.480379900    0.490275956
    0.315315315    0.467170180    0.510538316    0.520916646
    0.330330330    0.496468113    0.541759850    0.552610811
    0.345345345    0.526991335    0.574142096    0.585452886
    0.360360360    0.558865176    0.607792312    0.619546221
    0.375375375    0.592230253    0.642828856    0.655004342
    0.390390390    0.627245174    0.679382906    0.691952443
    0.405405405    0.664089845    0.717600496    0.730529151
    0.420420420    0.702969540    0.757644971    0.770888611
    0.435435435    0.744119970    0.799699965    0.813203002
    0.450450450    0.787813630    0.843973032    0.857665556
    0.465465465    0.834367860    0.890700131    0.904494247
    0.480480480    0.884155171    0.940151210    0.953936313
    0.495495495    0.937616648    0.992637241    1.006273866
    0.510510511    0.995279565    1.048519203    1.061830934
    0.525525526    1.057780872    1.108219673    1.120982396
    0.540540541    1.125898999    1.172238056    1.184165484
    0.555555556    1.200597642    1.241170871    1.251894805
    0.570570571    1.283087155    1.315739309    1.324782299
    0.585585586    1.374912286    1.396827364    1.403564231
    0.600600601    1.478080137    1.485535728    1.489138457
    0.615615616    1.595250614    1.583259620    1.582616946
    0.630630631    1.730025203    1.691803542    1.685401434
    0.645645646    1.887390648    1.813553309    1.799294399
    0.660660661    2.074399644    1.951735130    1.926663364
    0.675675676    2.301175362    2.110795285    2.070680069
    0.690690691    2.582183946    2.296893218    2.235638198
    0.705705706    2.936948178    2.518266408    2.427239345
    0.720720721    3.386681921    2.784393956    2.652323970
    0.735735736    3.938581697    3.101414445    2.916790165
    0.750750751    4.560699826    3.464739686    3.222207780
    0.765765766    5.208993843    3.868105395    3.570849851
    0.780780781    5.913101007    4.330999103    3.979972393
    0.795795796    6.723819023    4.881768214    4.472881023
    0.810810811    7.604488274    5.518606051    5.055608386
    0.825825826    8.459284932    6.206319183    5.706626987
    0.840840841    9.238028885    6.909624653    6.394083293
    0.855855856   10.036755941    7.664183167    7.140083457
    0.870870871   10.948345661    8.525802689    7.991869443
    0.885885886   11.842305769    9.427752824    8.896915179
    0.900900901   12.544205331   10.277693907    9.781986330
    0.915915916   13.223792398   11.207338536   10.770880821
    0.930930931   14.171054457   12.444634293   12.077234444
    0.945945946   15.317631149   14.013170212   13.744830913
    0.960960961   16.415663699   15.799863908   15.691511170
    0.975975976   17.449421984   17.768950529   17.877646309
    0.990990991   18.611344561   19.973329077   20.324518745
    1.006006006   20.029953780   22.455639255   23.054496214
    1.021021021   21.557781474   25.045587098   25.890059046
    1.036036036   22.952977391   27.458851546   28.536683258
    1.051051051   24.178294594   29.633012645   30.927518927
    1.066066066   25.248073303   31.552668927   33.041247428
    1.081081081   26.110594377   33.125469914   34.776880405
    1.096096096   26.618246328   34.245178934   36.036821876
    1.111111111   26.717899372   34.932391474   36.856765897
    1.126126126   26.654959705   35.434405971   37.482976043
    1.141141141   26.661728777   35.946869085   38.103014460
    1.156156156   26.788237046   36.513344805   38.761312553
    1.171171171   26.993898060   37.080163265   39.402478310
    1.186186186   27.273229656   37.588959122   39.959134565
    1.201201201   27.757700222   38.206821176   40.609130414
    1.216216216   28.606343673   39.239096865   41.689788116
    1.231231231   29.807673078   40.845120582   43.395880930
    1.246246246   31.104628439   42.847906852   45.563631310
    1.261261261   32.196736349   44.850167625   47.771223320
    1.276276276   33.111131291   46.664172462   49.785001204
    1.291291291   34.130347916   48.404277437   51.686158318
    1.306306306   35.529744073   50.286026672   53.680321621
    1.321321321   37.382366831   52.436299970   55.905556698
    1.336336336   39.505766439   54.863502711   58.410174972
    1.351351351   41.649056310   57.462944877   61.115903126
    1.366366366   43.479777821   59.732788959   63.475217556
    1.381381381   44.593199774   60.970927145   64.724618273
    1.396396396   44.895261084   61.027469154   64.712465946
    1.411411411   44.682801735   60.336696422   63.906590648
    1.426426426   44.235104370   59.241159292   62.661071609
    1.441441441   43.712982790   57.890610251   61.124923545
    1.456456456   43.500710617   56.761350920   59.799273531
    1.471471471   44.037711592   56.483656005   59.354939787
    1.486486486   45.347672318   57.227003054   59.986470448
    1.501501502   47.012977912   58.620218075   61.325846774
    1.516516517   48.567144369   60.177693767   62.882251994
    1.531531532   49.824471956   61.587971969   64.317740969
    1.546546547   50.735266979   62.619681955   65.362309156
    1.561561562   51.165394526   63.014926198   65.734590769
    1.576576577   51.039408833   62.651439745   65.307548544
    1.591591592   50.461237875   61.696383674   64.264259305
    1.606606607   49.744461627   60.600020342   63.085393682
    1.621621622   49.328668811   59.875821145   62.298605940
    1.636636637   49.463682921   59.706551623   62.064268504
    1.651651652   49.997386618   59.772558703   62.018070202
    1.666666667   50.558838072   59.578477942   61.639584022
    1.681681682   50.971671822   59.004678999   60.835021206
    1.696696697   51.376987042   58.356326225   59.951234422
    1.711711712   51.900194025   57.907589048   59.289556202
    1.726726727   52.474017882   57.698620977   58.910424781
    1.741741742   53.034090095   57.708062094   58.804017647
    1.756756757   53.636497388   57.915480464   58.928337478
    1.771771772   54.312702292   58.174687001   59.089202778
    1.786786787   54.893855321   58.190024754   58.964321702
    1.801801802   55.279156351   57.858957724   58.462168352
    1.816816817   55.556253542   57.348515545   57.769028616
    1.831831832   55.703224443   56.721947849   56.960951638
    1.846846847   55.605617727   55.883882193   55.947105669
    1.861861862   55.188662535   54.766146654   54.663784395
    1.876876877   54.393635986   53.347366651   53.097766465
    1.891891892   53.285513025   51.707981414   51.335579793
    1.906906907   52.179418716   50.142463697   49.672045470
    1.921921922   51.452327366   48.996130130   48.442401596
    1.936936937   51.107045565   48.247769635   47.607711027
    1.951951952   50.871858503   47.578388727   46.835892165
    1.966966967   50.678690066   46.862784802   45.997744121
    1.981981982   50.582341825   46.148565862   45.141376005
    1.996996997   50.413478022   45.346252729   44.192277092
    2.012012012   49.930627226   44.388549709   43.124068900
    2.027027027   49.183613374   43.414953742   42.100227232
    2.042042042   48.372584381   42.576142388   41.257678087
    2.057057057   47.385098109   41.775626509   40.496715012
    2.072072072   45.959859896   40.802482426   39.618201866
    2.087087087   44.170500163   39.634887051   38.584823971
    2.102102102   42.363290404   38.420219284   37.501876112
    2.117117117   40.748582787   37.276460439   36.466351193
    2.132132132   39.339319866   36.253209607   35.533846050
    2.147147147   38.052456559   35.304906103   34.662996338
    2.162162162   36.765085961   34.305018444   33.725978069
    2.177177177   35.417551548   33.206601219   32.682682698
    2.192192192   34.110578712   32.137151175   31.669751602
    2.207207207   32.957008914   31.201310516   30.786512100
    2.222222222   31.883305268   30.346439120   29.981813541
    2.237237237   30.800899767   29.543135322   29.241685778
    2.252252252   29.748420276   28.851571784   28.632066364
    2.267267267   28.827869742   28.300746184   28.165824926
    2.282282282   28.203210557   27.933479038   27.860903719
    2.297297297   28.032837922   27.845475710   27.798888393
    2.312312312   28.259834859   28.002734787   27.946490434
    2.327327327   28.588791497   28.189003820   28.102084578
    2.342342342   28.757616195   28.236913150   28.121477281
    2.357357357   28.728423547   28.155957008   28.027493559
    2.372372372   28.569853842   28.010188911   27.883320621
    2.387387387   28.341200220   27.799740735   27.675891070
    2.402402402   28.095107281   27.468370973   27.324327553
    2.417417417   27.806008141   26.968953270   26.775241743
    2.432432432   27.382353883   26.295082559   26.041924214
    2.447447447   26.878995858   25.546647922   25.237394235
    2.462462462   26.489108247   24.896156234   24.529766992
    2.477477477   26.329458456   24.450096951   24.021329736
    2.492492492   26.423088097   24.225837696   23.727130478
    2.507507508   26.744658624   24.184373635   23.603726037
    2.522522523   27.074546547   24.169440667   23.507286416
    2.537537538   27.081689665   23.969563592   23.255077087
    2.552552553   26.669628606   23.527514948   22.802937806
    2.567567568   26.065805478   22.988263919   22.278886642
    2.582582583   25.495012356   22.506173958   21.819045418
    2.597597598   24.954340149   22.067490837   21.404494177
    2.612612613   24.357325627   21.575358069   20.936383925
    2.627627628   23.694938565   21.031001693   20.419818565
    2.642642643   23.018693026   20.523298206   19.951614306
    2.657657658   22.365456342   20.086538532   19.564188119
    2.672672673   21.706889031   19.656808116   19.185167129
    2.687687688   20.991802141   19.172087168   18.751178470
    2.702702703   20.293472107   18.701497954   18.332042463
    2.717717718   19.731663822   18.350597191   18.029655979
    2.732732733   19.311469213   18.101489866   17.819505774
    2.747747748   18.988536346   17.866451222   17.604329190
    2.762762763   18.762124606   17.608127585   17.339148955
    2.777777778   18.604863404   17.319548513   17.021173410
    2.792792793   18.444576648   16.991348913   16.655073240
    2.807807808   18.202613016   16.597501198   16.226642136
    2.822822823   17.852337963   16.116782499   15.716170611
    2.837837838   17.463708943   15.604456053   15.176086864
    2.852852853   17.084760183   15.127353279   14.677149408
    2.867867868   16.680147663   14.685740436   14.227321698
    2.882882883   16.212318205   14.242513819   13.789413158
    2.897897898   15.678622476   13.766996963   13.326509178
    2.912912913   15.103889290   13.260550695   12.835206963
    2.927927928   14.569313695   12.786062990   12.375175682
    2.942942943   14.186422857   12.429363463   12.026190287
    2.957957958   14.004793037   12.219291683   11.811602733
    2.972972973   13.993056511   12.128443028   11.704324255
    2.987987988   14.048835336   12.084731713   11.638425441
    3.003003003   14.037754031   12.000991520   11.537404698
    3.018018018   13.883846817   11.836362532   11.369117332
    3.033033033   13.608300735   11.608383205   11.150803504
    3.048048048   13.260973964   11.337386656   10.896101978
    3.063063063   12.857077365   11.023774770   10.602154194
    3.078078078   12.397502727   10.676115397   10.279726792
    3.093093093   11.929763902   10.339798088    9.973895340
    3.108108108   11.512605955   10.054016193    9.718743782
    3.123123123   11.167331804    9.817249920    9.507183781
    3.138138138   10.887566084    9.610854323    9.317871794
    3.153153153   10.646943728    9.416889045    9.134630347
    3.168168168   10.396120999    9.210248945    8.937481361
    3.183183183   10.106986326    8.972393206    8.710541540
    3.198198198    9.801326197    8.717438959    8.467035021
    3.213213213    9.513265112    8.480621165    8.242470799
    3.228228228    9.257454111    8.283912535    8.059976929
    3.243243243    9.059877450    8.144738561    7.934999188
    3.258258258    8.952115428    8.083469581    7.885104641
    3.273273273    8.927626029    8.090001044    7.898956334
    3.288288288    8.943933441    8.121547666    7.933626517
    3.303303303    8.934720014    8.124465586    7.938606488
    3.318318318    8.853996940    8.072592007    7.892742196
    3.333333333    8.709551200    7.981100026    7.813081823
    3.348348348    8.541890729    7.880555022    7.728019595
    3.363363363    8.393451022    7.797749680    7.660620664
    3.378378378    8.300843103    7.754221739    7.628692477
    3.393393393    8.276046347    7.756935436    7.637833128
    3.408408408    8.287113850    7.783078598    7.667173286
    3.423423423    8.284236270    7.789389787    7.675026638
    3.438438438    8.234010887    7.739737208    7.624856521
    3.453453453    8.131820079    7.629032746    7.511722640
    3.468468468    7.988031521    7.469860603    7.348823092
    3.483483483    7.822169860    7.275986733    7.148545785
    3.498498498    7.657922252    7.066503256    6.928840614
    3.513513514    7.506978598    6.859912156    6.709771105
    3.528528529    7.353297907    6.658335728    6.497371624
    3.543543544    7.154254665    6.440749664    6.275430577
    3.558558559    6.896999823    6.198764865    6.036926237
    3.573573574    6.629546303    5.960094217    5.805055576
    3.588588589    6.407240991    5.756775279    5.606495015
    3.603603604    6.249577650    5.604091519    5.455522537
    3.618618619    6.145655175    5.497974266    5.349458854
    3.633633634    6.083172442    5.426841556    5.276834331
    3.648648649    6.049642097    5.377238576    5.223868479
    3.663663664    6.020236838    5.327103315    5.169058461
    3.678678679    5.979780664    5.266807089    5.104199604
    3.693693694    5.930431537    5.206100239    5.040704211
    3.708708709    5.866206014    5.143131779    4.977647153
    3.723723724    5.789641646    5.078177821    4.915217139
    3.738738739    5.716607223    5.025592145    4.867470951
    3.753753754    5.639109229    4.979746405    4.828797047
    3.768768769    5.518017801    4.905729540    4.764970879
    3.783783784    5.336967498    4.786007935    4.658642227
    3.798798799    5.128858452    4.646491848    4.534612479
    3.813813814    4.946123240    4.533144997    4.437451740
    3.828828829    4.834417209    4.483311461    4.402430573
    3.843843844    4.802922768    4.497061284    4.427133508
    3.858858859    4.814387167    4.534552661    4.470822225
    3.873873874    4.828276213    4.558134531    4.496560113
    3.888888889    4.825683309    4.557587901    4.496227241
    3.903903904    4.795682355    4.534268504    4.474035525
    3.918918919    4.735237569    4.489184331    4.432033876
    3.933933934    4.662099249    4.431152862    4.377196763
    3.948948949    4.599498268    4.375669403    4.323317707
    3.963963964    4.552297098    4.332567842    4.281296004
    3.978978979    4.514543556    4.305163062    4.256459166
    3.993993994    4.478728485    4.289906889    4.246027008
    4.009009009    4.441522710    4.281706102    4.244496586
    4.024024024    4.404915308    4.278152215    4.248503941
    4.039039039    4.370129116    4.274113775    4.251429854
    4.054054054    4.338649447    4.266114813    4.248641775
    4.069069069    4.312131847    4.254445359    4.240109039
    4.084084084    4.283615025    4.234798482    4.222171875
    4.099099099    4.244532782    4.202494693    4.191143324
    4.114114114    4.192922315    4.155638214    4.145095906
    4.129129129    4.129519344    4.091031927    4.079946540
    4.144144144    4.061013426    4.012032023    3.998457385
    4.159159159    3.996924736    3.927849351    3.909790848
    4.174174174    3.940564323    3.844832243    3.820941946
    4.189189189    3.885807285    3.764217336    3.734754728
    4.204204204    3.827854890    3.686475777    3.652845158
    4.219219219    3.771514533    3.613377070    3.576217458
    4.234234234    3.727983550    3.549680758    3.508121242
    4.249249249    3.707526411    3.504775552    3.457741800
    4.264264264    3.700758902    3.477396677    3.425600874
    4.279279279    3.686054603    3.451907794    3.397505760
    4.294294294    3.654247633    3.418303468    3.363432310
    4.309309309    3.608434016    3.379674771    3.326483826
    4.324324324    3.551791225    3.339827445    3.290507637
    4.339339339    3.483060035    3.294174364    3.250108432
    4.354354354    3.403084002    3.238740721    3.200258744
    4.369369369    3.318242288    3.177676156    3.144648842
    4.384384384    3.238180966    3.118005841    3.089642421
    4.399399399    3.168546340    3.060906884    3.035351458
    4.414414414    3.107766779    3.005209857    2.980763670
    4.429429429    3.054108855    2.955809995    2.932338467
    4.444444444    3.011517556    2.922299648    2.900945056
    4.459459459    2.984535182    2.910880895    2.893076263
    4.474474474    2.971801470    2.915527981    2.901647721
    4.489489489    2.969146835    2.925612338    2.914642916
    4.504504505    2.970149974    2.936019474    2.927230077
    4.519519520    2.963805967    2.943941744    2.938433647
    4.534534535    2.950038875    2.952811708    2.952518395
    4.549549550    2.946788001    2.974527392    2.979978784
    4.564564565    2.962818794    3.010880190    3.020977740
    4.579579580    2.984414352    3.045626625    3.058672372
    4.594594595    2.991071329    3.059034659    3.073453082
    4.609609610    2.969911323    3.042987066    3.058283654
    4.624624625    2.919538592    3.003129977    3.020508236
    4.639639640    2.851155274    2.953070289    2.974472395
    4.654654655    2.788269080    2.914140107    2.941052207
    4.669669670    2.751322341    2.902661904    2.935441113
    4.684684685    2.741311194    2.913355133    2.950822840
    4.699699700    2.748305575    2.929372971    2.968898574
    4.714714715    2.767938652    2.944219927    2.982783435
    4.729729730    2.796205686    2.959362774    2.995076048
    4.744744745    2.824205910    2.974140263    3.006934080
    4.759759760    2.845257696    2.988031847    3.019209268
    4.774774775    2.859236912    3.004192803    3.035727529
    4.789789790    2.866021958    3.022513426    3.056431406
    4.804804805    2.868221385    3.042439026    3.080229410
    4.819819820    2.872492086    3.066166721    3.108399005
    4.834834835    2.882349984    3.091013309    3.136817117
    4.849849850    2.897847040    3.108921410    3.155515610
    4.864864865    2.914528629    3.114378668    3.158577354
    4.879879880    2.924472884    3.112306466    3.153725330
    4.894894895    2.925300184    3.113054131    3.154279937
