# energy grid [eV]     epsr_x  epsr_y  epsr_z
#
    0.000000000   32.515422194   35.224270678   35.856077212
    0.015015015   32.518321179   35.227477956   35.859357636
    0.030030030   32.527023046   35.237104833   35.869203988
    0.045045045   32.541542562   35.253166466   35.885631537
    0.060060060   32.561904427   35.275688200   35.908665807
    0.075075075   32.588143420   35.304705689   35.938342703
    0.090090090   32.620304592   35.340265075   35.974708682
    0.105105105   32.658443526   35.382423219   36.017820973
    0.120120120   32.702626662   35.431247980   36.067747857
    0.135135135   32.752931686   35.486818567   36.124569004
    0.150150150   32.809447997   35.549225944   36.188375861
    0.165165165   32.872277250   35.618573305   36.259272123
    0.180180180   32.941533992   35.694976624   36.337374256
    0.195195195   33.017346390   35.778565283   36.422812108
    0.210210210   33.099857071   35.869482791   36.515729598
    0.225225225   33.189224079   35.967887597   36.616285502
    0.240240240   33.285621969   36.073954013   36.724654335
    0.255255255   33.389243059   36.187873253   36.841027348
    0.270270270   33.500298854   36.309854615   36.965613653
    0.285285285   33.619021674   36.440126808   37.098641488
    0.300300300   33.745666512   36.578939457   37.240359641
    0.315315315   33.880513165   36.726564802   37.391039058
    0.330330330   34.023868676   36.883299625   37.550974653
    0.345345345   34.176070145   37.049467432   37.720487358
    0.360360360   34.337487971   37.225420945   37.899926443
    0.375375375   34.508529607   37.411544930   38.089672144
    0.390390390   34.689643918   37.608259442   38.290138658
    0.405405405   34.881326274   37.816023541   38.501777558
    0.420420420   35.084124503   38.035339572   38.725081704
    0.435435435   35.298645910   38.266758108   38.960589722
    0.450450450   35.525565564   38.510883697   39.208891185
    0.465465465   35.765636146   38.768381540   39.470632594
    0.480480480   36.019699704   39.039985325   39.746524335
    0.495495495   36.288701737   39.326506422   40.037348787
    0.510510511   36.573708142   39.628844756   40.343969838
    0.525525526   36.875925659   39.948001674   40.667344071
    0.540540541   37.196726531   40.285095245   41.008533969
    0.555555556   37.537678142   40.641378448   41.368723548
    0.570570571   37.900578224   41.018260703   41.749236843
    0.585585586   38.287495576   41.417333096   42.151559668
    0.600600601   38.700814392   41.840397100   42.577364863
    0.615615616   39.143275614   42.289495244   43.028540592
    0.630630631   39.617997265   42.766938644   43.507219548
    0.645645646   40.128427979   43.275317680   44.015802513
    0.660660661   40.678121293   43.817461079   44.556959056
    0.675675676   41.270060637   44.396258892   45.133562530
    0.690690691   41.904917974   45.014154765   45.748459784
    0.705705706   42.577044461   45.671925990   46.403878589
    0.720720721   43.267092417   46.366389787   47.100278309
    0.735735736   43.936516899   47.088628194   47.835417447
    0.750750751   44.549566383   47.830627914   48.607551819
    0.765765766   45.127598539   48.601663058   49.423269623
    0.780780781   45.711794340   49.415235728   50.289832595
    0.795795796   46.256960136   50.252815124   51.194681032
    0.810810811   46.687431932   51.077509205   52.109651197
    0.825825826   46.999570366   51.870432814   53.012453419
    0.840840841   47.292378912   52.664513261   53.921142892
    0.855855856   47.644141732   53.507865675   54.876920823
    0.870870871   47.949963611   54.356812149   55.849830341
    0.885885886   48.090090149   55.148888205   56.790731373
    0.900900901   48.225282588   55.992959157   57.797191931
    0.915915916   48.597873370   57.050226705   59.011562558
    0.930930931   49.073026603   58.239652895   60.364221342
    0.945945946   49.360072671   59.345645541   61.656757858
    0.960960961   49.471230811   60.287789193   62.788300220
    0.975975976   49.609056670   61.090278320   63.742112413
    0.990990991   49.823067536   61.732782108   64.481115234
    1.006006006   49.918839190   62.062893885   64.861309215
    1.021021021   49.672500086   61.876210196   64.682862209
    1.036036036   49.128434996   61.227929456   64.005521832
    1.051051051   48.426438475   60.287420547   63.006236126
    1.066066066   47.589354721   59.091858081   61.725203917
    1.081081081   46.605844849   57.690680511   60.224824610
    1.096096096   45.537810848   56.226180095   58.664440632
    1.111111111   44.660196084   54.962934195   57.306304270
    1.126126126   44.171901960   54.051371977   56.291247686
    1.141141141   43.989901974   53.404738445   55.534435704
    1.156156156   43.977159795   52.910614959   54.930118567
    1.171171171   44.079178954   52.509346626   54.417665593
    1.186186186   44.348815993   52.306785538   54.115243331
    1.201201201   44.821924389   52.459787825   54.203598080
    1.216216216   45.359892514   52.889285818   54.613052282
    1.231231231   45.699631946   53.259852558   54.989342145
    1.246246246   45.668431840   53.201169425   54.917893363
    1.261261261   45.425381831   52.663260324   54.306322456
    1.276276276   45.302531619   51.913245892   53.411625488
    1.291291291   45.423637136   51.169095643   52.473690988
    1.306306306   45.641605964   50.435108988   51.527390145
    1.321321321   45.625810518   49.538243756   50.430406768
    1.336336336   45.107448436   48.262721852   48.976090973
    1.351351351   43.967884264   46.294110724   46.804231975
    1.366366366   42.165126351   43.353983987   43.591098806
    1.381381381   39.941265632   39.761470203   39.684432378
    1.396396396   37.820252213   36.306827081   35.933688746
    1.411411411   36.159703363   33.472627484   32.842642742
    1.426426426   35.005794767   31.291606436   30.439131880
    1.441441441   34.439282111   29.902026020   28.875963479
    1.456456456   34.532953972   29.494235973   28.365650251
    1.471471471   34.947233384   29.740710505   28.576092594
    1.486486486   35.078937985   29.917694509   28.753337624
    1.501501502   34.536723932   29.477132534   28.318410245
    1.516516517   33.369230583   28.307432148   27.130216739
    1.531531532   31.810945683   26.502787254   25.255340639
    1.546546547   29.975275387   24.165689972   22.796752865
    1.561561562   27.977092776   21.498480229   19.978957935
    1.576576577   26.077777605   18.895799612   17.224473892
    1.591591592   24.580066926   16.787127139   14.986559248
    1.606606607   23.703319183   15.407999865   13.500561017
    1.621621622   23.382631269   14.581937363   12.560344573
    1.636636637   23.224077507   13.789866585   11.616906542
    1.651651652   22.816570888   12.607177174   10.249109404
    1.666666667   22.078207289   11.106707854    8.576035385
    1.681681682   21.249616023    9.728392676    7.083786874
    1.696696697   20.491899454    8.711587247    6.018553086
    1.711711712   19.707728273    7.930314369    5.241857559
    1.726726727   18.797726680    7.190947885    4.541554102
    1.741741742   17.802434665    6.386862991    3.777200874
    1.756756757   16.750026307    5.387811067    2.778833208
    1.771771772   15.519773333    4.031728103    1.379546118
    1.786786787   14.035023884    2.346661054   -0.357853542
    1.801801802   12.440231195    0.612856609   -2.121963956
    1.816816817   10.788251689   -1.040104239   -3.774943981
    1.831831832    8.999520270   -2.702005546   -5.409579452
    1.846846847    7.095429104   -4.391872322   -7.049304260
    1.861861862    5.165393887   -6.018597252   -8.603067517
    1.876876877    3.358037780   -7.446756266   -9.938697771
    1.891891892    1.919938542   -8.476168660  -10.865027690
    1.906906907    1.016436310   -8.981664420  -11.269903037
    1.921921922    0.448826652   -9.175342255  -11.377997652
    1.936936937   -0.194717981   -9.475952993  -11.609380079
    1.951951952   -1.033623579  -10.006058669  -12.075524453
    1.966966967   -1.963397947  -10.609980212  -12.605856042
    1.981981982   -3.062148223  -11.266862839  -13.162645618
    1.996996997   -4.466563474  -12.006551287  -13.751623637
    2.012012012   -6.042444123  -12.688666958  -14.228471317
    2.027027027   -7.530133065  -13.199104921  -14.514347942
    2.042042042   -8.967966732  -13.659459956  -14.755133715
    2.057057057  -10.534093791  -14.252862153  -15.133146928
    2.072072072  -12.070604879  -14.929241573  -15.615523347
    2.087087087  -13.212541575  -15.481065466  -16.028788388
    2.102102102  -13.863104661  -15.817398653  -16.286848720
    2.117117117  -14.202409879  -15.983499701  -16.407547765
    2.132132132  -14.417948972  -16.073159038  -16.466316396
    2.147147147  -14.623883686  -16.190339241  -16.563805321
    2.162162162  -14.828668975  -16.336554523  -16.695602530
    2.177177177  -14.924392184  -16.375259677  -16.716727277
    2.192192192  -14.817666614  -16.217290751  -16.542674047
    2.207207207  -14.597185934  -15.953010348  -16.267725315
    2.222222222  -14.367593561  -15.657981637  -15.957909748
    2.237237237  -14.062628232  -15.283536565  -15.566266771
    2.252252252  -13.584465375  -14.814489336  -15.097088334
    2.267267267  -12.883263339  -14.282647699  -14.599913709
    2.282282282  -11.978327424  -13.692069411  -14.076115853
    2.297297297  -11.058536613  -13.131235026  -13.595496186
    2.312312312  -10.431783777  -12.803889828  -13.339984448
    2.327327327  -10.246424250  -12.798276801  -13.380744915
    2.342342342  -10.370162907  -12.994560771  -13.597106943
    2.357357357  -10.594239115  -13.251884033  -13.863947106
    2.372372372  -10.820996292  -13.544106048  -14.172288990
    2.387387387  -11.019215943  -13.902825288  -14.568062889
    2.402402402  -11.204809248  -14.321731982  -15.040714919
    2.417417417  -11.430715316  -14.737813174  -15.500841994
    2.432432432  -11.636073365  -15.041507581  -15.825612637
    2.447447447  -11.661025775  -15.116591276  -15.909033982
    2.462462462  -11.484622232  -14.965685039  -15.761928237
    2.477477477  -11.237803202  -14.706193397  -15.499655082
    2.492492492  -11.057957165  -14.468532232  -15.250799300
    2.507507508  -11.124734001  -14.388871405  -15.141751542
    2.522522523  -11.611492535  -14.574736557  -15.262985687
    2.537537538  -12.419104525  -14.956352685  -15.547814788
    2.552552553  -13.202400834  -15.316864061  -15.808505415
    2.567567568  -13.735615290  -15.513544886  -15.924747262
    2.582582583  -14.101718608  -15.607485942  -15.955415858
    2.597597598  -14.449483198  -15.721755002  -16.016745276
    2.612612613  -14.789232135  -15.852937467  -16.100107652
    2.627627628  -15.056477166  -15.909734954  -16.108492854
    2.642642643  -15.228971444  -15.879362835  -16.032584508
    2.657657658  -15.338218846  -15.838140577  -15.958553124
    2.672672673  -15.424936091  -15.836580061  -15.937870302
    2.687687688  -15.435419595  -15.810265866  -15.902510920
    2.702702703  -15.284160617  -15.678579213  -15.773750362
    2.717717718  -15.020008365  -15.497483022  -15.610830372
    2.732732733  -14.751127480  -15.381632630  -15.529625854
    2.747747748  -14.509379091  -15.354420693  -15.550567545
    2.762762763  -14.314619702  -15.381160815  -15.627035070
    2.777777778  -14.220971441  -15.444292561  -15.725597621
    2.792792793  -14.251288467  -15.536502665  -15.831861721
    2.807807808  -14.372711515  -15.647933773  -15.941004533
    2.822822823  -14.491718307  -15.722133434  -16.004574257
    2.837837838  -14.551551925  -15.702945893  -15.966938895
    2.852852853  -14.595790129  -15.618029943  -15.852587206
    2.867867868  -14.657001868  -15.521119833  -15.719946236
    2.882882883  -14.706113807  -15.428180615  -15.594866893
    2.897897898  -14.694974977  -15.314509910  -15.457534675
    2.912912913  -14.568923022  -15.127518736  -15.255461783
    2.927927928  -14.284511446  -14.824032588  -14.946052586
    2.942942943  -13.882681487  -14.438005547  -14.562831284
    2.957957958  -13.477159268  -14.054408685  -14.184490462
    2.972972973  -13.186163686  -13.752125546  -13.880989930
    2.987987988  -13.088920979  -13.579932749  -13.693728268
    3.003003003  -13.173121520  -13.523011883  -13.606338949
    3.018018018  -13.338366250  -13.514769456  -13.559385451
    3.033033033  -13.489582135  -13.504457338  -13.512475080
    3.048048048  -13.598095863  -13.480405201  -13.457981979
    3.063063063  -13.665681176  -13.433166320  -13.383827602
    3.078078078  -13.663468845  -13.332401958  -13.259418522
    3.093093093  -13.558225234  -13.161144132  -13.072214907
    3.108108108  -13.371147748  -12.950216912  -12.855608525
    3.123123123  -13.148502488  -12.738433332  -12.646373377
    3.138138138  -12.930900571  -12.544228127  -12.457730044
    3.153153153  -12.750263546  -12.374556754  -12.291082291
    3.168168168  -12.609627905  -12.227186003  -12.142567536
    3.183183183  -12.465516709  -12.074071535  -11.986974215
    3.198198198  -12.277552928  -11.880447769  -11.791081291
    3.213213213  -12.042637366  -11.637826020  -11.545984699
    3.228228228  -11.767760532  -11.359890955  -11.267040735
    3.243243243  -11.453739270  -11.057648052  -10.967506704
    3.258258258  -11.135955718  -10.761701455  -10.677121105
    3.273273273  -10.869075385  -10.518671709  -10.440435655
    3.288288288  -10.693340173  -10.357389928  -10.283256662
    3.303303303  -10.610251917  -10.267903030  -10.192611304
    3.318318318  -10.568920552  -10.204368897  -10.123811790
    3.333333333  -10.508346400  -10.125590563  -10.040430128
    3.348348348  -10.397489243  -10.016948872   -9.931849610
    3.363363363  -10.236527918   -9.883286483   -9.804288210
    3.378378378  -10.049141964   -9.742396872   -9.674244963
    3.393393393   -9.885126020   -9.628443006   -9.572222044
    3.408408408   -9.787604492   -9.575219911   -9.529649028
    3.423423423   -9.761230639   -9.590864029   -9.555190328
    3.438438438   -9.778038311   -9.649709247   -9.623567438
    3.453453453   -9.804122198   -9.714229303   -9.696481721
    3.468468468   -9.816073180   -9.762161513   -9.752133088
    3.483483483   -9.799549683   -9.779927433   -9.777285233
    3.498498498   -9.758151758   -9.760947875   -9.763050999
    3.513513514   -9.712865448   -9.712957767   -9.714210678
    3.528528529   -9.689372116   -9.655216699   -9.648628368
    3.543543544   -9.680296003   -9.591830756   -9.572694970
    3.558558559   -9.630062658   -9.494776442   -9.464543985
    3.573573574   -9.498346887   -9.342758980   -9.307468772
    3.588588589   -9.301140817   -9.145475693   -9.109819492
    3.603603604   -9.081076546   -8.928597990   -8.893536088
    3.618618619   -8.868894680   -8.717127672   -8.682328314
    3.633633634   -8.677889833   -8.524905844   -8.490112244
    3.648648649   -8.522359764   -8.362392397   -8.326463848
    3.663663664   -8.406910932   -8.229503584   -8.190046778
    3.678678679   -8.315709830   -8.107452195   -8.061328705
    3.693693694   -8.240434064   -7.989097532   -7.933521169
    3.708708709   -8.177656348   -7.877753384   -7.811198758
    3.723723724   -8.113554971   -7.764451884   -7.686498231
    3.738738739   -8.052038506   -7.653036688   -7.563743347
    3.753753754   -8.016520306   -7.566722370   -7.466246990
    3.768768769   -8.003150447   -7.506107103   -7.395093898
    3.783783784   -7.963649715   -7.431786857   -7.312492001
    3.798798799   -7.855207808   -7.306069646   -7.182146515
    3.813813814   -7.671543711   -7.124143949   -6.999994367
    3.828828829   -7.443855220   -6.917620854   -6.798079305
    3.843843844   -7.230249288   -6.738321677   -6.626906815
    3.858858859   -7.070562156   -6.615560362   -6.513117105
    3.873873874   -6.962191977   -6.537204635   -6.442115188
    3.888888889   -6.888903496   -6.479902666   -6.388845697
    3.903903904   -6.835088454   -6.430217191   -6.340307071
    3.918918919   -6.777864803   -6.376894393   -6.287817419
    3.933933934   -6.697851400   -6.307432841   -6.220493180
    3.948948949   -6.600289522   -6.220083244   -6.135179540
    3.963963964   -6.501358411   -6.122329096   -6.037498696
    3.978978979   -6.409823167   -6.023965552   -5.937551128
    3.993993994   -6.326778396   -5.933279592   -5.845228860
    4.009009009   -6.247920495   -5.852506239   -5.764146786
    4.024024024   -6.170701081   -5.783281669   -5.696900574
    4.039039039   -6.095818940   -5.727149621   -5.645237303
    4.054054054   -6.023522402   -5.680918502   -5.605141122
    4.069069069   -5.958762985   -5.644370685   -5.575165884
    4.084084084   -5.906953577   -5.618912754   -5.555726558
    4.099099099   -5.863676854   -5.600693407   -5.543124996
    4.114114114   -5.821769898   -5.586010305   -5.534509054
    4.129129129   -5.774109574   -5.568755742   -5.523889027
    4.144144144   -5.714265731   -5.539197137   -5.500809346
    4.159159159   -5.643855784   -5.494032820   -5.460988068
    4.174174174   -5.571077610   -5.436349232   -5.406427282
    4.189189189   -5.500845854   -5.369483194   -5.340147082
    4.204204204   -5.427478991   -5.293649941   -5.263712992
    4.219219219   -5.344239244   -5.208365012   -5.178062826
    4.234234234   -5.250768120   -5.112285097   -5.081563255
    4.249249249   -5.160722606   -5.011478634   -4.978534125
    4.264264264   -5.093840313   -4.921943047   -4.884051935
    4.279279279   -5.050694107   -4.849763489   -4.805313345
    4.294294294   -5.017319933   -4.785649434   -4.734131072
    4.309309309   -4.983970890   -4.721377189   -4.662775977
    4.324324324   -4.948645612   -4.658798112   -4.594021177
    4.339339339   -4.908830003   -4.599680270   -4.530546837
    4.354354354   -4.857872978   -4.537621922   -4.465960443
    4.369369369   -4.789919435   -4.465421010   -4.392801006
    4.384384384   -4.704962507   -4.383045510   -4.311080980
    4.399399399   -4.609723712   -4.293914765   -4.223391297
    4.414414414   -4.509538565   -4.195951801   -4.125921685
    4.429429429   -4.403746984   -4.085085812   -4.013860589
    4.444444444   -4.291318831   -3.963109027   -3.889715992
    4.459459459   -4.177607499   -3.841174809   -3.765962268
    4.474474474   -4.069840683   -3.731361716   -3.655692860
    4.489489489   -3.972435853   -3.635020890   -3.559570688
    4.504504505   -3.888970805   -3.548331136   -3.472155979
    4.519519520   -3.815607471   -3.466629221   -3.388575766
    4.534534535   -3.736900807   -3.382597480   -3.303368366
    4.549549550   -3.649189114   -3.298637180   -3.220360211
    4.564564565   -3.570967125   -3.231314277   -3.155664203
    4.579579580   -3.518299987   -3.191596948   -3.119082828
    4.594594595   -3.489599263   -3.172767012   -3.102688620
    4.609609610   -3.470062443   -3.155917326   -3.086541197
    4.624624625   -3.440371355   -3.123478443   -3.053369649
    4.639639640   -3.382275441   -3.063560485   -2.992769130
    4.654654655   -3.289293430   -2.974859113   -2.904836837
    4.669669670   -3.175417388   -2.874637629   -2.807672115
    4.684684685   -3.061527970   -2.784739308   -2.723195182
    4.699699700   -2.956179341   -2.709590989   -2.654790459
    4.714714715   -2.860755034   -2.641453099   -2.592770164
    4.729729730   -2.779871294   -2.577151114   -2.532269590
    4.744744745   -2.714876730   -2.516629450   -2.472862830
    4.759759760   -2.659989567   -2.457235394   -2.412605752
    4.774774775   -2.609397427   -2.398411334   -2.352064286
    4.789789790   -2.559704246   -2.342716113   -2.294998411
    4.804804805   -2.505425631   -2.289346276   -2.241648673
    4.819819820   -2.446096313   -2.240304106   -2.194714184
    4.834834835   -2.385898313   -2.200718009   -2.159657167
    4.849849850   -2.329928343   -2.170848188   -2.135726575
    4.864864865   -2.282787537   -2.142492168   -2.111838761
    4.879879880   -2.243013407   -2.106120547   -2.076474765
    4.894894895   -2.202224407   -2.062306317   -2.032078484
